wavelength,alpha_0,alpha_0_uncertainty
400,117.29,10.57
400.5,93.79,10.34
401,73.35,10.15
401.5,55.32,9.99
402,39.25,9.85
402.5,24.77,9.72
403,11.61,9.61
403.5,-0.44,9.51
404,-11.57,9.43
404.5,-21.91,9.35
405,-31.57,9.27
405.5,-40.65,9.2
406,-49.23,9.14
406.5,-57.37,9.08
407,-65.13,9.03
407.5,-72.56,8.98
408,-79.7,8.94
408.5,-86.58,8.89
409,-93.24,8.85
409.5,-99.7,8.82
410,-105.99,8.78
410.5,-112.13,8.75
411,-118.13,8.72
411.5,-124.02,8.69
412,-129.81,8.66
412.5,-135.52,8.64
413,-141.16,8.62
413.5,-146.74,8.6
414,-152.27,8.58
414.5,-157.76,8.56
415,-163.23,8.54
415.5,-168.69,8.53
416,-174.14,8.52
416.5,-179.6,8.51
417,-185.07,8.5
417.5,-190.57,8.5
418,-196.1,8.49
418.5,-201.67,8.49
419,-207.31,8.49
419.5,-213.01,8.5
420,-218.79,8.5
420.5,-224.66,8.51
421,-230.65,8.52
421.5,-236.76,8.54
422,-243.01,8.55
422.5,-249.44,8.58
423,-256.05,8.6
423.5,-262.9,8.64
424,-270,8.67
424.5,-277.42,8.72
425,-285.19,8.78
425.5,-293.4,8.84
426,-302.13,8.92
426.5,-311.5,9.02
427,-321.67,9.15
427.5,-332.85,9.3
428,-345.34,9.5
428.5,-359.6,9.77
429,-376.29,10.13
429.5,-396.52,10.64
430,-422.17,11.4
430.5,-456.77,12.61
431,-507.87,14.67
431.5,-594.9,18.73
432,-788.09,28.88
432.08,-844.34,31.97
432.16,-915.19,35.9
432.24,-1007.3,41.08
432.32,-1132.11,48.16
432.4,-1311.04,58.39
432.48,-1589.48,74.41
432.56,-2083.3,102.98
432.64,-3202.25,167.97
432.67,-4101.52,220.28
432.68,-4540.41,245.82
432.69,-5094.55,278.07
432.7,-5816.2,320.09
432.71,-6794.88,377.07
432.72,-8197.69,458.76
432.73,-10376.66,585.67
432.74,-14222.42,809.67
432.75,-22832.28,1311.19
432.76,-59467.46,3445.25
432.77,93925.77,5490.3
432.78,25904.21,1527.9
432.79,14909.95,887.49
432.8,10410.38,625.4
432.81,7962.75,482.85
432.82,6424.02,393.24
432.83,5367.2,331.7
432.84,4596.53,286.83
432.85,4009.64,252.67
432.86,3547.79,225.79
432.87,3174.85,204.09
432.95,1651.34,115.54
433.03,1051.08,80.77
433.11,729.66,62.25
433.19,529.2,50.77
433.27,392.07,42.98
433.35,292.24,37.36
433.43,216.21,33.13
433.51,156.28,29.83
434.01,-46.45,19.2
434.51,-136.42,15.05
435.01,-189.36,12.98
435.51,-225.51,11.82
436.01,-252.69,11.11
436.51,-274.56,10.65
437.01,-293.04,10.35
437.51,-309.26,10.15
438.01,-323.92,10.02
438.51,-337.46,9.94
439.01,-350.21,9.89
439.51,-362.38,9.86
440.01,-374.14,9.86
440.51,-385.61,9.87
441.01,-396.89,9.9
441.51,-408.05,9.93
442.01,-419.16,9.98
442.51,-430.27,10.03
443.01,-441.42,10.1
443.51,-452.66,10.17
444.01,-464.01,10.25
444.51,-475.51,10.33
445.01,-487.2,10.42
445.51,-499.08,10.52
446.01,-511.21,10.62
446.8,-530.9,10.8
447.3,-543.74,10.92
447.8,-556.92,11.05
448.3,-570.44,11.19
448.8,-584.35,11.33
449.3,-598.67,11.48
449.8,-613.43,11.64
450.3,-628.67,11.81
450.8,-644.41,11.98
451.3,-660.69,12.17
451.8,-677.55,12.36
452.3,-695.03,12.57
452.8,-713.18,12.79
453.3,-732.05,13.02
453.8,-751.67,13.26
454.3,-772.12,13.51
454.8,-793.45,13.78
455.3,-815.74,14.07
455.8,-839.04,14.37
456.3,-863.46,14.69
456.8,-889.07,15.03
457.3,-915.97,15.39
457.8,-944.28,15.78
458.3,-974.13,16.18
458.8,-1005.64,16.62
459.3,-1038.99,17.09
459.8,-1074.33,17.59
460.3,-1111.89,18.12
460.36,-1116.55,18.19
460.42,-1121.25,18.26
460.48,-1125.99,18.32
460.54,-1130.76,18.39
460.58,-1133.97,18.44
460.61,-1136.38,18.47
460.64,-1138.8,18.51
460.67,-1141.23,18.54
460.7,-1143.67,18.58
460.73,-1146.12,18.61
460.76,-1148.58,18.65
460.79,-1151.05,18.69
460.82,-1153.53,18.72
460.85,-1156.02,18.76
460.87,-1157.68,18.78
460.9,-1160.19,18.82
460.93,-1162.7,18.86
460.96,-1165.23,18.89
460.99,-1167.76,18.93
461.02,-1170.31,18.97
461.05,-1172.86,19
461.08,-1175.43,19.04
461.11,-1178.01,19.08
461.14,-1180.59,19.12
461.17,-1183.19,19.15
461.23,-1188.41,19.23
461.29,-1193.68,19.31
461.35,-1198.99,19.38
461.41,-1204.34,19.46
461.91,-1250.73,20.15
462.41,-1300.56,20.89
462.91,-1354.24,21.69
463.41,-1412.28,22.57
463.91,-1475.26,23.54
464.41,-1543.88,24.6
464.91,-1619,25.77
465.41,-1701.64,27.08
465.91,-1793.07,28.54
466.41,-1894.87,30.18
466.91,-2009.03,32.05
467.6,-2191.71,35.08
468.1,-2347.04,37.69
468.6,-2527.11,40.76
469.1,-2738.76,44.42
469.6,-2991.68,48.85
470.1,-3300.05,54.34
470.6,-3685.45,61.31
471.1,-4185.28,70.43
471.6,-4856.72,82.95
472.1,-5817.11,101.13
472.6,-7315.32,129.93
473.1,-10005.87,182.4
473.6,-16348.12,307.59
473.68,-18268.63,345.68
473.76,-20730.8,394.58
473.84,-24002.69,459.64
473.92,-28564.24,550.44
473.96,-31593.72,610.78
474,-35368.16,685.99
474.04,-40201.4,782.34
474.08,-46612.32,910.17
474.12,-55525.13,1087.95
474.16,-68761.11,1352.02
474.2,-90475.63,1785.34
474.24,-132660.4,2627.27
474.28,-250092.97,4971.27
474.32,-2307015.95,46030.63
474.33,2165120.34,43240.46
474.37,246319.84,4938.25
474.41,130128.54,2619.04
474.45,88203.43,1782.3
474.49,66583.83,1350.89
474.53,53392.62,1087.72
474.57,44504.22,910.45
474.61,38107.89,782.93
474.65,33283.91,686.79
474.69,29515.54,611.73
474.73,26490.12,551.5
474.81,21933.01,460.87
474.89,18662.66,395.93
474.97,16200.29,347.12
475.05,14278.43,309.12
475.55,7912.48,184.49
476.05,5179.39,132.81
476.55,3620.45,105.12
477.05,2578.89,88.43
477.55,1802.14,77.89
478.05,1169.33,71.35
478.55,611.57,67.79
479.05,81.69,66.77
479.55,-460.55,68.24
480.05,-1059.22,72.5
480.55,-1775.44,80.4
481.05,-2712.59,93.66
481.55,-4080.22,116.2
482.05,-6404.27,158.14
482.55,-11533.39,255.6
482.64,-13221.07,288.17
482.73,-15402.66,330.43
482.82,-18335.17,387.41
482.91,-22491.09,468.38
482.94,-24291.29,503.5
482.99,-27977.05,575.46
483.04,-32891.78,671.51
483.09,-39775.08,806.13
483.14,-50108.85,1008.35
483.19,-67360.48,1346.11
483.24,-101983.07,2024.2
483.29,-206860.67,4078.72
483.39,203567.4,3962.75
483.44,103177.49,1996.15
483.49,69386.13,1334.32
483.54,52425.81,1002.25
483.59,42227.31,802.65
483.64,35417.94,669.44
483.69,30548.26,574.23
483.74,26892.22,502.8
483.79,24045.93,447.23
483.84,21766.78,402.77
483.89,19900.09,366.4
483.98,17193.94,315.23
484.07,15289.7,276.73
484.16,13740.39,246.68
484.25,12494.88,222.58
484.75,8448.12,144.88
485.25,6495.72,108.02
485.75,5336.98,86.55
486.25,4564.57,72.5
486.75,4009.79,62.61
487.25,3590.04,55.26
487.75,3260.07,49.59
488.25,2992.98,45.07
488.75,2771.72,41.39
489.25,2584.98,38.33
489.75,2424.95,35.74
490.25,2286.03,33.53
490.75,2164.12,31.6
491.25,2056.14,29.92
491.75,1959.71,28.43
492.25,1872.99,27.11
492.75,1794.51,25.92
493.25,1723.1,24.85
493.75,1657.8,23.88
494.25,1597.82,23
494.75,1542.5,22.18
495.25,1491.3,21.44
495.75,1443.76,20.75
496.25,1399.46,20.12
496.75,1358.09,19.53
497.25,1319.34,18.98
497.75,1282.97,18.46
498.25,1248.74,17.98
498.75,1216.48,17.53
499.25,1186,17.11
499.75,1157.16,16.71
500.25,1129.81,16.33
500.75,1103.86,15.98
501.25,1079.17,15.64
501.75,1055.67,15.32
502.25,1033.26,15.02
502.75,1011.87,14.73
503.25,991.42,14.46
503.75,971.86,14.2
504.25,953.11,13.95
504.75,935.14,13.71
505.25,917.89,13.48
505.75,901.32,13.26
506.25,885.38,13.05
506.75,870.04,12.85
507.25,855.26,12.66
507.75,841.02,12.48
508.25,827.28,12.3
508.75,814.01,12.13
509.25,801.19,11.96
509.75,788.8,11.8
510.25,776.81,11.65
510.75,765.21,11.5
511.25,753.97,11.36
511.75,743.08,11.22
512.25,732.52,11.09
512.75,722.27,10.96
513.25,712.32,10.84
513.75,702.66,10.72
514.25,693.27,10.6
514.75,684.14,10.49
515.25,675.27,10.38
515.75,666.63,10.27
516.25,658.22,10.17
516.75,650.03,10.07
517.25,642.05,9.97
517.75,634.27,9.88
518.25,626.68,9.79
518.75,619.28,9.7
519.25,612.06,9.61
519.75,605.01,9.53
520.25,598.13,9.44
520.75,591.4,9.36
521.25,584.83,9.29
521.75,578.41,9.21
522.25,572.12,9.14
522.75,565.98,9.06
523.25,559.97,8.99
523.75,554.08,8.92
524.25,548.32,8.86
524.75,542.67,8.79
525.25,537.14,8.73
525.75,531.73,8.67
526.25,526.42,8.6
526.75,521.21,8.55
527.25,516.1,8.49
527.75,511.09,8.43
528.25,506.18,8.37
528.75,501.35,8.32
529.25,496.62,8.27
529.75,491.97,8.21
530.25,487.4,8.16
530.75,482.91,8.11
531.25,478.51,8.06
531.75,474.17,8.02
532.25,469.91,7.97
532.75,465.72,7.92
533.25,461.6,7.88
533.75,457.55,7.83
534.25,453.56,7.79
534.75,449.64,7.75
535.25,445.78,7.71
535.75,441.97,7.67
536.25,438.23,7.63
536.75,434.54,7.59
537.25,430.91,7.55
537.75,427.33,7.51
538.25,423.8,7.47
538.75,420.33,7.44
539.25,416.9,7.4
539.75,413.52,7.36
540.25,410.19,7.33
540.75,406.9,7.3
541.25,403.66,7.26
541.75,400.45,7.23
542.25,397.3,7.2
542.75,394.18,7.17
543.25,391.1,7.13
543.75,388.06,7.1
544.25,385.06,7.07
544.75,382.1,7.04
545.25,379.17,7.01
545.75,376.28,6.99
546.25,373.42,6.96
546.75,370.6,6.93
547.25,367.8,6.9
547.75,365.04,6.88
548.25,362.31,6.85
548.75,359.61,6.82
549.25,356.94,6.8
549.75,354.3,6.77
550.25,351.69,6.75
550.75,349.1,6.72
551.25,346.54,6.7
551.75,344.01,6.67
552.25,341.5,6.65
552.75,339.02,6.63
553.25,336.56,6.6
553.75,334.12,6.58
554.25,331.71,6.56
554.75,329.32,6.54
555.25,326.95,6.52
555.75,324.6,6.5
556.25,322.27,6.47
556.75,319.97,6.45
557.25,317.68,6.43
557.75,315.41,6.41
558.25,313.17,6.39
558.75,310.94,6.37
559.25,308.72,6.35
559.75,306.53,6.34
560.25,304.35,6.32
560.75,302.19,6.3
561.25,300.05,6.28
561.75,297.92,6.26
562.25,295.8,6.24
562.75,293.7,6.23
563.25,291.62,6.21
563.75,289.55,6.19
564.25,287.49,6.18
564.75,285.45,6.16
565.25,283.42,6.14
565.75,281.4,6.13
566.25,279.4,6.11
566.75,277.41,6.09
567.25,275.43,6.08
567.75,273.46,6.06
568.25,271.5,6.05
568.75,269.55,6.03
569.25,267.61,6.02
569.75,265.68,6
570.25,263.77,5.99
570.75,261.86,5.97
571.25,259.96,5.96
571.75,258.07,5.95
572.25,256.18,5.93
572.75,254.31,5.92
573.25,252.44,5.91
573.75,250.59,5.89
574.25,248.74,5.88
574.75,246.89,5.87
575.25,245.05,5.85
575.75,243.22,5.84
576.25,241.4,5.83
576.75,239.58,5.82
577.25,237.77,5.8
577.75,235.96,5.79
578.25,234.16,5.78
578.75,232.36,5.77
579.25,230.57,5.76
579.75,228.78,5.75
580.25,227,5.73
580.75,225.22,5.72
581.25,223.44,5.71
581.75,221.67,5.7
582.25,219.9,5.69
582.75,218.13,5.68
583.25,216.37,5.67
583.75,214.6,5.66
584.25,212.84,5.65
584.75,211.08,5.64
585.25,209.33,5.63
585.75,207.57,5.62
586.25,205.82,5.61
586.75,204.06,5.6
587.25,202.31,5.59
587.75,200.56,5.58
588.25,198.81,5.57
588.75,197.05,5.56
589.25,195.3,5.55
589.75,193.55,5.54
590.25,191.79,5.53
590.75,190.03,5.53
591.25,188.28,5.52
591.75,186.52,5.51
592.25,184.75,5.5
592.75,182.99,5.49
593.25,181.22,5.48
593.75,179.45,5.48
594.25,177.68,5.47
594.75,175.91,5.46
595.25,174.13,5.45
595.75,172.34,5.44
596.25,170.55,5.44
596.75,168.76,5.43
597.25,166.96,5.42
597.75,165.16,5.41
598.25,163.35,5.41
598.75,161.54,5.4
599.25,159.72,5.39
599.75,157.89,5.39
600.25,156.06,5.38
600.75,154.22,5.37
601.25,152.37,5.37
601.75,150.52,5.36
602.25,148.65,5.36
602.75,146.78,5.35
603.25,144.9,5.34
603.75,143.01,5.34
604.25,141.11,5.33
604.75,139.2,5.33
605.25,137.28,5.32
605.75,135.35,5.32
606.25,133.41,5.31
606.75,131.46,5.3
607.25,129.5,5.3
607.75,127.52,5.29
608.25,125.53,5.29
608.75,123.53,5.29
609.25,121.51,5.28
609.75,119.49,5.28
610.25,117.44,5.27
610.75,115.38,5.27
611.25,113.31,5.26
611.75,111.22,5.26
612.25,109.11,5.26
612.75,106.99,5.25
613.25,104.84,5.25
613.75,102.68,5.24
614.25,100.51,5.24
614.75,98.31,5.24
615.25,96.09,5.24
615.75,93.85,5.23
616.25,91.59,5.23
616.75,89.31,5.23
617.25,87.01,5.22
617.75,84.68,5.22
618.25,82.33,5.22
618.75,79.96,5.22
619.25,77.56,5.22
619.75,75.13,5.21
620.25,72.67,5.21
620.75,70.19,5.21
621.25,67.68,5.21
621.75,65.14,5.21
622.25,62.57,5.21
622.75,59.97,5.21
623.25,57.34,5.21
623.75,54.67,5.21
624.25,51.96,5.21
624.75,49.23,5.21
625.25,46.45,5.21
625.75,43.64,5.21
626.25,40.79,5.21
626.75,37.9,5.21
627.25,34.96,5.21
627.75,31.99,5.21
628.25,28.96,5.21
628.75,25.9,5.22
629.25,22.78,5.22
629.75,19.62,5.22
630.25,16.41,5.22
630.75,13.14,5.23
631.25,9.82,5.23
631.75,6.44,5.23
632.25,3.01,5.24
632.75,-0.48,5.24
633.25,-4.04,5.25
633.75,-7.66,5.25
634.25,-11.34,5.26
634.75,-15.1,5.27
635.25,-18.92,5.27
635.75,-22.82,5.28
636.25,-26.79,5.29
636.75,-30.85,5.29
637.25,-34.98,5.3
637.75,-39.21,5.31
638.25,-43.51,5.32
638.75,-47.92,5.33
639.25,-52.41,5.34
639.75,-57.01,5.35
640.25,-61.71,5.36
640.75,-66.52,5.37
641.25,-71.43,5.39
641.75,-76.47,5.4
642.25,-81.62,5.41
642.75,-86.9,5.43
643.25,-92.32,5.45
643.75,-97.87,5.46
644.25,-103.56,5.48
644.75,-109.4,5.5
645.25,-115.4,5.52
645.75,-121.57,5.54
646.25,-127.9,5.56
646.75,-134.41,5.58
647.25,-141.11,5.61
647.75,-148.01,5.63
648.25,-155.11,5.66
648.75,-162.43,5.69
649.25,-169.97,5.72
649.75,-177.76,5.75
650.25,-185.8,5.78
650.75,-194.1,5.82
651.25,-202.68,5.85
651.75,-211.55,5.89
652.25,-220.74,5.93
652.75,-230.25,5.98
653.25,-240.11,6.02
653.75,-250.34,6.07
654.25,-260.97,6.12
654.75,-272,6.17
655.25,-283.48,6.23
655.75,-295.42,6.29
656.25,-307.87,6.36
656.75,-320.84,6.42
657.25,-334.39,6.5
657.75,-348.54,6.57
658.25,-363.35,6.65
658.75,-378.86,6.74
659.25,-395.12,6.83
659.75,-412.19,6.93
660.25,-430.14,7.04
660.75,-449.03,7.15
661.25,-468.95,7.27
661.75,-489.98,7.4
662.25,-512.22,7.54
662.75,-535.78,7.69
663.25,-560.79,7.85
663.75,-587.38,8.02
664.25,-615.71,8.21
664.75,-645.97,8.41
665.25,-678.35,8.63
665.75,-713.1,8.86
666.25,-750.48,9.12
666.75,-790.81,9.4
667.25,-834.46,9.71
667.75,-881.87,10.05
668.25,-933.53,10.42
668.75,-990.06,10.83
669.25,-1052.19,11.29
669.75,-1120.79,11.8
670.25,-1196.94,12.37
670.75,-1281.97,13.01
671.25,-1377.53,13.74
671.75,-1485.71,14.57
672.25,-1609.22,15.53
672.75,-1751.56,16.64
673.25,-1917.42,17.93
673.75,-2113.15,19.48
674.25,-2347.66,21.33
674.75,-2633.76,23.61
675.25,-2990.59,26.46
675.75,-3448.16,30.13
676.25,-4056.16,35.02
676.75,-4903.46,41.86
677.25,-6166.06,52.08
677.75,-8248.65,68.96
678.25,-12334.57,102.13
678.75,-23994.79,196.88
678.81,-27028.43,221.54
678.87,-30930.06,253.25
678.93,-36134.36,295.56
678.99,-43424.53,354.82
679.02,-48287.32,394.35
679.05,-54368.83,443.79
679.08,-62192.87,507.4
679.11,-72633.58,592.28
679.14,-87267.24,711.25
679.17,-109254.28,890
679.2,-145997.12,1188.72
679.23,-219851.74,1789.16
679.26,-444412.07,3614.85
679.32,427561.64,3474.37
679.35,216005.77,1754.4
679.38,144558.54,1173.54
679.41,108658.21,881.67
679.44,87061.13,706.08
679.47,72639.3,588.84
679.5,62326.31,504.99
679.53,54585.17,442.06
679.56,48560.49,393.08
679.59,43738.35,353.88
679.62,39791.38,321.79
679.68,33716.32,272.41
679.74,29259.12,236.18
679.8,25849.45,208.46
679.86,23156.84,186.58
680.36,12455.19,99.62
680.86,8567.09,68.06
681.36,6556.54,51.76
681.86,5320,41.76
682.36,4499.42,35.13
682.86,3902.98,30.33
683.36,3452.93,26.71
683.86,3101.27,23.9
684.4,2798.7,21.49
684.9,2570.42,19.68
685.4,2379.45,18.17
685.9,2217.32,16.9
686.4,2077.95,15.81
686.9,1956.86,14.86
687.4,1850.66,14.04
687.9,1756.77,13.32
688.4,1673.15,12.68
688.9,1598.2,12.11
688.95,1591.13,12.06
689,1584.13,12.01
689.05,1577.2,11.96
689.1,1570.35,11.9
689.15,1563.56,11.85
689.2,1556.84,11.8
689.25,1550.19,11.75
689.3,1543.61,11.7
689.35,1537.09,11.65
689.4,1530.63,11.6
689.415,1528.71,11.59
689.419,1528.2,11.59
689.423,1527.69,11.58
689.427,1527.17,11.58
689.431,1526.66,11.57
689.435,1526.15,11.57
689.439,1525.64,11.57
689.443,1525.13,11.56
689.447,1524.62,11.56
689.451,1524.11,11.56
689.455,1523.61,11.55
689.459,1523.1,11.55
689.463,1522.59,11.54
689.467,1522.08,11.54
689.471,1521.58,11.54
689.475,1521.07,11.53
689.479,1520.56,11.53
689.483,1520.06,11.53
689.487,1519.55,11.52
689.491,1519.05,11.52
689.541,1512.77,11.47
689.591,1506.55,11.42
689.641,1500.39,11.38
689.691,1494.29,11.33
689.741,1488.25,11.29
689.791,1482.26,11.24
689.841,1476.34,11.2
689.891,1470.46,11.15
689.941,1464.65,11.11
689.991,1458.88,11.07
690.491,1404.06,10.66
690.991,1353.91,10.29
691.491,1307.84,9.95
691.991,1265.38,9.65
692.491,1226.11,9.36
692.991,1189.69,9.1
693.491,1155.82,8.86
693.991,1124.23,8.64
694.491,1094.71,8.43
694.991,1067.04,8.24
695.491,1041.07,8.06
695.991,1016.64,7.9
696.491,993.62,7.74
696.991,971.88,7.6
697.491,951.32,7.46
697.991,931.85,7.33
698.491,913.38,7.21
698.991,895.83,7.1
699.491,879.14,6.99
699.991,863.24,6.89
700.491,848.09,6.79
700.991,833.62,6.7
701.491,819.79,6.62
701.991,806.56,6.54
702.491,793.89,6.46
702.991,781.74,6.38
703.491,770.09,6.31
703.991,758.9,6.25
704.491,748.14,6.18
704.991,737.8,6.12
705.491,727.84,6.07
705.991,718.24,6.01
706.491,708.99,5.96
706.991,700.06,5.91
707.491,691.45,5.86
707.991,683.12,5.81
708.491,675.07,5.77
708.991,667.29,5.72
709.491,659.76,5.68
709.991,652.46,5.64
710.491,645.4,5.61
710.991,638.54,5.57
711.491,631.9,5.53
711.991,625.45,5.5
712.491,619.19,5.47
712.991,613.11,5.44
713.491,607.2,5.4
713.991,601.45,5.38
714.491,595.86,5.35
714.991,590.43,5.32
715.491,585.13,5.29
715.991,579.98,5.27
716.491,574.96,5.24
716.991,570.06,5.22
717.491,565.29,5.19
717.991,560.64,5.17
718.491,556.1,5.15
718.991,551.67,5.13
719.491,547.35,5.11
719.991,543.12,5.09
720.491,539,5.07
720.991,534.97,5.05
721.491,531.03,5.03
721.991,527.18,5.01
722.491,523.41,4.99
722.991,519.72,4.98
723.491,516.12,4.96
723.991,512.59,4.94
724.491,509.13,4.93
724.991,505.75,4.91
725.491,502.43,4.9
725.991,499.18,4.88
726.491,496,4.87
726.991,492.88,4.86
727.491,489.82,4.84
727.991,486.82,4.83
728.491,483.87,4.82
728.991,480.99,4.8
729.491,478.15,4.79
729.991,475.37,4.78
730.491,472.64,4.77
730.991,469.96,4.76
731.491,467.33,4.74
731.991,464.74,4.73
732.491,462.2,4.72
732.991,459.7,4.71
733.491,457.25,4.7
733.991,454.84,4.69
734.491,452.46,4.68
734.991,450.13,4.67
735.491,447.84,4.66
735.991,445.58,4.65
736.491,443.36,4.64
736.991,441.18,4.63
737.491,439.03,4.63
737.991,436.91,4.62
738.491,434.83,4.61
738.991,432.78,4.6
739.491,430.76,4.59
739.991,428.77,4.58
740.491,426.81,4.58
740.991,424.88,4.57
741.491,422.98,4.56
741.991,421.11,4.55
742.491,419.26,4.55
742.991,417.44,4.54
743.491,415.65,4.53
743.991,413.88,4.52
744.491,412.13,4.52
744.991,410.41,4.51
745.491,408.72,4.5
745.991,407.04,4.5
746.491,405.39,4.49
746.991,403.76,4.48
747.491,402.16,4.48
747.991,400.57,4.47
748.491,399.01,4.46
748.991,397.46,4.46
749.491,395.94,4.45
749.991,394.43,4.45
750.491,392.95,4.44
750.991,391.48,4.44
751.491,390.03,4.43
751.991,388.6,4.42
752.491,387.18,4.42
752.991,385.79,4.41
753.491,384.41,4.41
753.991,383.04,4.4
754.491,381.7,4.4
754.991,380.36,4.39
755.491,379.05,4.39
755.991,377.75,4.38
756.491,376.46,4.38
756.991,375.19,4.37
757.491,373.94,4.37
757.991,372.69,4.36
758.491,371.47,4.36
758.991,370.25,4.35
759.491,369.05,4.35
759.991,367.86,4.34
760.491,366.69,4.34
760.991,365.52,4.34
761.491,364.37,4.33
761.991,363.24,4.33
762.491,362.11,4.32
762.991,361,4.32
763.491,359.9,4.31
763.991,358.8,4.31
764.491,357.73,4.31
764.991,356.66,4.3
765.491,355.6,4.3
765.991,354.55,4.29
766.491,353.52,4.29
766.991,352.49,4.29
767.491,351.47,4.28
767.991,350.47,4.28
768.491,349.47,4.27
768.991,348.48,4.27
769.491,347.51,4.27
769.991,346.54,4.26
770.491,345.58,4.26
770.991,344.63,4.26
771.491,343.69,4.25
771.991,342.76,4.25
772.491,341.84,4.25
772.991,340.92,4.24
773.491,340.01,4.24
773.991,339.12,4.24
774.491,338.23,4.23
774.991,337.34,4.23
775.491,336.47,4.23
775.991,335.6,4.22
776.491,334.74,4.22
776.991,333.89,4.22
777.491,333.05,4.21
777.991,332.21,4.21
778.491,331.38,4.21
778.991,330.56,4.2
779.491,329.75,4.2
779.991,328.94,4.2
780.491,328.14,4.19
780.991,327.34,4.19
781.491,326.55,4.19
781.991,325.77,4.18
782.491,325,4.18
782.991,324.23,4.18
783.491,323.46,4.18
783.991,322.71,4.17
784.491,321.96,4.17
784.991,321.21,4.17
785.491,320.47,4.16
785.991,319.74,4.16
786.491,319.01,4.16
786.991,318.29,4.16
787.491,317.58,4.15
787.991,316.86,4.15
788.491,316.16,4.15
788.991,315.46,4.15
789.491,314.77,4.14
789.991,314.08,4.14
790.491,313.39,4.14
790.991,312.71,4.14
791.491,312.04,4.13
791.991,311.37,4.13
792.491,310.71,4.13
792.991,310.05,4.13
793.491,309.4,4.12
793.991,308.75,4.12
794.491,308.1,4.12
794.991,307.46,4.12
795.491,306.83,4.11
795.991,306.19,4.11
796.491,305.57,4.11
796.991,304.94,4.11
797.491,304.33,4.1
797.991,303.71,4.1
798.491,303.1,4.1
798.991,302.5,4.1
799.491,301.9,4.09
799.991,301.3,4.09
800.491,300.71,4.09
800.991,300.12,4.09
801.491,299.53,4.08
801.991,298.95,4.08
802.491,298.37,4.08
802.991,297.8,4.08
803.491,297.23,4.08
803.991,296.66,4.07
804.491,296.1,4.07
804.991,295.54,4.07
805.491,294.99,4.07
805.991,294.44,4.07
806.491,293.89,4.06
806.991,293.34,4.06
807.491,292.8,4.06
807.991,292.26,4.06
808.491,291.73,4.05
808.991,291.2,4.05
809.491,290.67,4.05
809.991,290.15,4.05
810.491,289.62,4.05
