wavelength,alpha_0,alpha_0_uncertainty,alpha_1,alpha_1_uncertainty,alpha_2,alpha_2_uncertainty
400,-60.59,4.2,0,0,0,0
400.02,-61.16,4.2,0,0,0,0
400.04,-61.73,4.2,0,0,0,0
400.06,-62.28,4.19,0,0,0,0
400.08,-62.82,4.19,0,0,0,0
400.1,-63.36,4.19,0,0,0,0
400.12,-63.88,4.19,0,0,0,0
400.14,-64.4,4.18,0,0,0,0
400.16,-64.91,4.18,0,0,0,0
400.18,-65.41,4.18,0,0,0,0
400.2,-65.91,4.18,0,0,0,0
400.22,-66.4,4.17,0,0,0,0
400.24,-66.88,4.17,0,0,0,0
400.26,-67.36,4.17,0,0,0,0
400.28,-67.82,4.17,0,0,0,0
400.3,-68.29,4.16,0,0,0,0
400.32,-68.75,4.16,0,0,0,0
400.34,-69.2,4.16,0,0,0,0
400.36,-69.65,4.15,0,0,0,0
400.38,-70.09,4.15,0,0,0,0
400.4,-70.52,4.15,0,0,0,0
400.42,-70.96,4.15,0,0,0,0
400.44,-71.38,4.14,0,0,0,0
400.46,-71.81,4.14,0,0,0,0
400.48,-72.23,4.14,0,0,0,0
400.5,-72.64,4.14,0,0,0,0
400.52,-73.05,4.13,0,0,0,0
400.54,-73.46,4.13,0,0,0,0
400.56,-73.86,4.13,0,0,0,0
400.58,-74.26,4.13,0,0,0,0
400.6,-74.65,4.12,0,0,0,0
400.62,-75.05,4.12,0,0,0,0
400.64,-75.44,4.12,0,0,0,0
400.66,-75.82,4.12,0,0,0,0
400.68,-76.2,4.11,0,0,0,0
400.7,-76.58,4.11,0,0,0,0
400.72,-76.96,4.11,0,0,0,0
400.74,-77.33,4.11,0,0,0,0
400.76,-77.7,4.1,0,0,0,0
400.78,-78.07,4.1,0,0,0,0
400.8,-78.44,4.1,0,0,0,0
400.82,-78.8,4.1,0,0,0,0
400.84,-79.16,4.09,0,0,0,0
400.86,-79.52,4.09,0,0,0,0
400.88,-79.87,4.09,0,0,0,0
400.9,-80.23,4.09,0,0,0,0
400.92,-80.58,4.08,0,0,0,0
400.94,-80.92,4.08,0,0,0,0
400.96,-81.27,4.08,0,0,0,0
400.98,-81.62,4.08,0,0,0,0
401,-81.96,4.07,0,0,0,0
401.02,-82.3,4.07,0,0,0,0
401.04,-82.64,4.07,0,0,0,0
401.06,-82.98,4.07,0,0,0,0
401.08,-83.31,4.06,0,0,0,0
401.1,-83.64,4.06,0,0,0,0
401.12,-83.98,4.06,0,0,0,0
401.14,-84.31,4.06,0,0,0,0
401.16,-84.64,4.05,0,0,0,0
401.18,-84.96,4.05,0,0,0,0
401.2,-85.29,4.05,0,0,0,0
401.22,-85.61,4.05,0,0,0,0
401.24,-85.94,4.05,0,0,0,0
401.26,-86.26,4.04,0,0,0,0
401.28,-86.58,4.04,0,0,0,0
401.3,-86.9,4.04,0,0,0,0
401.32,-87.21,4.04,0,0,0,0
401.34,-87.53,4.03,0,0,0,0
401.36,-87.84,4.03,0,0,0,0
401.38,-88.16,4.03,0,0,0,0
401.4,-88.47,4.03,0,0,0,0
401.42,-88.78,4.02,0,0,0,0
401.44,-89.09,4.02,0,0,0,0
401.46,-89.4,4.02,0,0,0,0
401.48,-89.71,4.02,0,0,0,0
401.5,-90.02,4.01,0,0,0,0
401.52,-90.32,4.01,0,0,0,0
401.54,-90.63,4.01,0,0,0,0
401.56,-90.93,4.01,0,0,0,0
401.58,-91.24,4,0,0,0,0
401.6,-91.54,4,0,0,0,0
401.62,-91.84,4,0,0,0,0
401.64,-92.14,4,0,0,0,0
401.66,-92.44,3.99,0,0,0,0
401.68,-92.74,3.99,0,0,0,0
401.7,-93.04,3.99,0,0,0,0
401.72,-93.34,3.99,0,0,0,0
401.74,-93.63,3.99,0,0,0,0
401.76,-93.93,3.98,0,0,0,0
401.78,-94.22,3.98,0,0,0,0
401.8,-94.52,3.98,0,0,0,0
401.82,-94.81,3.98,0,0,0,0
401.84,-95.11,3.97,0,0,0,0
401.86,-95.4,3.97,0,0,0,0
401.88,-95.69,3.97,0,0,0,0
401.9,-95.98,3.97,0,0,0,0
401.92,-96.28,3.96,0,0,0,0
401.94,-96.57,3.96,0,0,0,0
401.96,-96.86,3.96,0,0,0,0
401.98,-97.15,3.96,0,0,0,0
402,-97.44,3.96,0,0,0,0
402.02,-97.72,3.95,0,0,0,0
402.04,-98.01,3.95,0,0,0,0
402.06,-98.3,3.95,0,0,0,0
402.08,-98.59,3.95,0,0,0,0
402.1,-98.88,3.94,0,0,0,0
402.12,-99.16,3.94,0,0,0,0
402.14,-99.45,3.94,0,0,0,0
402.16,-99.73,3.94,0,0,0,0
402.18,-100.02,3.93,0,0,0,0
402.2,-100.3,3.93,0,0,0,0
402.22,-100.59,3.93,0,0,0,0
402.24,-100.87,3.93,0,0,0,0
402.26,-101.16,3.93,0,0,0,0
402.28,-101.44,3.92,0,0,0,0
402.3,-101.72,3.92,0,0,0,0
402.32,-102.01,3.92,0,0,0,0
402.34,-102.29,3.92,0,0,0,0
402.36,-102.57,3.91,0,0,0,0
402.38,-102.86,3.91,0,0,0,0
402.4,-103.14,3.91,0,0,0,0
402.42,-103.42,3.91,0,0,0,0
402.44,-103.7,3.9,0,0,0,0
402.46,-103.98,3.9,0,0,0,0
402.48,-104.27,3.9,0,0,0,0
402.5,-104.55,3.9,0,0,0,0
402.52,-104.83,3.9,0,0,0,0
402.54,-105.11,3.89,0,0,0,0
402.56,-105.39,3.89,0,0,0,0
402.58,-105.67,3.89,0,0,0,0
402.6,-105.95,3.89,0,0,0,0
402.62,-106.23,3.88,0,0,0,0
402.64,-106.51,3.88,0,0,0,0
402.66,-106.79,3.88,0,0,0,0
402.68,-107.07,3.88,0,0,0,0
402.7,-107.35,3.88,0,0,0,0
402.72,-107.63,3.87,0,0,0,0
402.74,-107.91,3.87,0,0,0,0
402.76,-108.19,3.87,0,0,0,0
402.78,-108.47,3.87,0,0,0,0
402.8,-108.75,3.86,0,0,0,0
402.82,-109.03,3.86,0,0,0,0
402.84,-109.31,3.86,0,0,0,0
402.86,-109.59,3.86,0,0,0,0
402.88,-109.87,3.86,0,0,0,0
402.9,-110.15,3.85,0,0,0,0
402.92,-110.43,3.85,0,0,0,0
402.94,-110.71,3.85,0,0,0,0
402.96,-110.99,3.85,0,0,0,0
402.98,-111.27,3.85,0,0,0,0
403,-111.56,3.84,0,0,0,0
403.02,-111.84,3.84,0,0,0,0
403.04,-112.12,3.84,0,0,0,0
403.06,-112.4,3.84,0,0,0,0
403.08,-112.68,3.83,0,0,0,0
403.1,-112.96,3.83,0,0,0,0
403.12,-113.24,3.83,0,0,0,0
403.14,-113.52,3.83,0,0,0,0
403.16,-113.8,3.83,0,0,0,0
403.18,-114.08,3.82,0,0,0,0
403.2,-114.36,3.82,0,0,0,0
403.22,-114.65,3.82,0,0,0,0
403.24,-114.93,3.82,0,0,0,0
403.26,-115.21,3.81,0,0,0,0
403.28,-115.49,3.81,0,0,0,0
403.3,-115.77,3.81,0,0,0,0
403.32,-116.06,3.81,0,0,0,0
403.34,-116.34,3.81,0,0,0,0
403.36,-116.62,3.8,0,0,0,0
403.38,-116.91,3.8,0,0,0,0
403.4,-117.19,3.8,0,0,0,0
403.42,-117.47,3.8,0,0,0,0
403.44,-117.76,3.8,0,0,0,0
403.46,-118.04,3.79,0,0,0,0
403.48,-118.33,3.79,0,0,0,0
403.5,-118.61,3.79,0,0,0,0
403.52,-118.9,3.79,0,0,0,0
403.54,-119.18,3.79,0,0,0,0
403.56,-119.47,3.78,0,0,0,0
403.58,-119.75,3.78,0,0,0,0
403.6,-120.04,3.78,0,0,0,0
403.62,-120.33,3.78,0,0,0,0
403.64,-120.61,3.77,0,0,0,0
403.66,-120.9,3.77,0,0,0,0
403.68,-121.19,3.77,0,0,0,0
403.7,-121.48,3.77,0,0,0,0
403.72,-121.76,3.77,0,0,0,0
403.74,-122.05,3.76,0,0,0,0
403.76,-122.34,3.76,0,0,0,0
403.78,-122.63,3.76,0,0,0,0
403.8,-122.92,3.76,0,0,0,0
403.82,-123.21,3.76,0,0,0,0
403.84,-123.5,3.75,0,0,0,0
403.86,-123.79,3.75,0,0,0,0
403.88,-124.08,3.75,0,0,0,0
403.9,-124.37,3.75,0,0,0,0
403.92,-124.67,3.75,0,0,0,0
403.94,-124.96,3.74,0,0,0,0
403.96,-125.25,3.74,0,0,0,0
403.98,-125.55,3.74,0,0,0,0
404,-125.84,3.74,0,0,0,0
404.02,-126.13,3.74,0,0,0,0
404.04,-126.43,3.73,0,0,0,0
404.06,-126.72,3.73,0,0,0,0
404.08,-127.02,3.73,0,0,0,0
404.1,-127.32,3.73,0,0,0,0
404.12,-127.61,3.73,0,0,0,0
404.14,-127.91,3.72,0,0,0,0
404.16,-128.21,3.72,0,0,0,0
404.18,-128.51,3.72,0,0,0,0
404.2,-128.81,3.72,0,0,0,0
404.22,-129.11,3.71,0,0,0,0
404.24,-129.41,3.71,0,0,0,0
404.26,-129.71,3.71,0,0,0,0
404.28,-130.01,3.71,0,0,0,0
404.3,-130.31,3.71,0,0,0,0
404.32,-130.61,3.7,0,0,0,0
404.34,-130.91,3.7,0,0,0,0
404.36,-131.22,3.7,0,0,0,0
404.38,-131.52,3.7,0,0,0,0
404.4,-131.83,3.7,0,0,0,0
404.42,-132.13,3.69,0,0,0,0
404.44,-132.44,3.69,0,0,0,0
404.46,-132.74,3.69,0,0,0,0
404.48,-133.05,3.69,0,0,0,0
404.5,-133.36,3.69,0,0,0,0
404.52,-133.67,3.68,0,0,0,0
404.54,-133.98,3.68,0,0,0,0
404.56,-134.29,3.68,0,0,0,0
404.58,-134.6,3.68,0,0,0,0
404.6,-134.91,3.68,0,0,0,0
404.62,-135.22,3.67,0,0,0,0
404.64,-135.53,3.67,0,0,0,0
404.66,-135.85,3.67,0,0,0,0
404.68,-136.16,3.67,0,0,0,0
404.7,-136.47,3.67,0,0,0,0
404.72,-136.79,3.67,0,0,0,0
404.74,-137.11,3.66,0,0,0,0
404.76,-137.42,3.66,0,0,0,0
404.78,-137.74,3.66,0,0,0,0
404.8,-138.06,3.66,0,0,0,0
404.82,-138.38,3.66,0,0,0,0
404.84,-138.7,3.65,0,0,0,0
404.86,-139.02,3.65,0,0,0,0
404.88,-139.34,3.65,0,0,0,0
404.9,-139.66,3.65,0,0,0,0
404.92,-139.99,3.65,0,0,0,0
404.94,-140.31,3.64,0,0,0,0
404.96,-140.64,3.64,0,0,0,0
404.98,-140.96,3.64,0,0,0,0
405,-141.29,3.64,0,0,0,0
405.02,-141.62,3.64,0,0,0,0
405.04,-141.95,3.63,0,0,0,0
405.06,-142.28,3.63,0,0,0,0
405.08,-142.61,3.63,0,0,0,0
405.1,-142.94,3.63,0,0,0,0
405.12,-143.27,3.63,0,0,0,0
405.14,-143.6,3.62,0,0,0,0
405.16,-143.94,3.62,0,0,0,0
405.18,-144.27,3.62,0,0,0,0
405.2,-144.61,3.62,0,0,0,0
405.22,-144.94,3.62,0,0,0,0
405.24,-145.28,3.61,0,0,0,0
405.26,-145.62,3.61,0,0,0,0
405.28,-145.96,3.61,0,0,0,0
405.3,-146.3,3.61,0,0,0,0
405.32,-146.64,3.61,0,0,0,0
405.34,-146.99,3.61,0,0,0,0
405.36,-147.33,3.6,0,0,0,0
405.38,-147.67,3.6,0,0,0,0
405.4,-148.02,3.6,0,0,0,0
405.42,-148.37,3.6,0,0,0,0
405.44,-148.72,3.6,0,0,0,0
405.46,-149.06,3.59,0,0,0,0
405.48,-149.41,3.59,0,0,0,0
405.5,-149.77,3.59,0,0,0,0
405.52,-150.12,3.59,0,0,0,0
405.54,-150.47,3.59,0,0,0,0
405.56,-150.83,3.58,0,0,0,0
405.58,-151.18,3.58,0,0,0,0
405.6,-151.54,3.58,0,0,0,0
405.62,-151.9,3.58,0,0,0,0
405.64,-152.26,3.58,0,0,0,0
405.66,-152.62,3.58,0,0,0,0
405.68,-152.98,3.57,0,0,0,0
405.7,-153.34,3.57,0,0,0,0
405.72,-153.71,3.57,0,0,0,0
405.74,-154.07,3.57,0,0,0,0
405.76,-154.44,3.57,0,0,0,0
405.78,-154.81,3.56,0,0,0,0
405.8,-155.18,3.56,0,0,0,0
405.82,-155.55,3.56,0,0,0,0
405.84,-155.92,3.56,0,0,0,0
405.86,-156.29,3.56,0,0,0,0
405.88,-156.67,3.55,0,0,0,0
405.9,-157.05,3.55,0,0,0,0
405.92,-157.42,3.55,0,0,0,0
405.94,-157.8,3.55,0,0,0,0
405.96,-158.18,3.55,0,0,0,0
405.98,-158.56,3.55,0,0,0,0
406,-158.95,3.54,0,0,0,0
406.02,-159.33,3.54,0,0,0,0
406.04,-159.72,3.54,0,0,0,0
406.06,-160.1,3.54,0,0,0,0
406.08,-160.49,3.54,0,0,0,0
406.1,-160.88,3.53,0,0,0,0
406.12,-161.28,3.53,0,0,0,0
406.14,-161.67,3.53,0,0,0,0
406.16,-162.06,3.53,0,0,0,0
406.18,-162.46,3.53,0,0,0,0
406.2,-162.86,3.53,0,0,0,0
406.22,-163.26,3.52,0,0,0,0
406.24,-163.66,3.52,0,0,0,0
406.26,-164.06,3.52,0,0,0,0
406.28,-164.47,3.52,0,0,0,0
406.3,-164.87,3.52,0,0,0,0
406.32,-165.28,3.51,0,0,0,0
406.34,-165.69,3.51,0,0,0,0
406.36,-166.1,3.51,0,0,0,0
406.38,-166.51,3.51,0,0,0,0
406.4,-166.93,3.51,0,0,0,0
406.42,-167.34,3.51,0,0,0,0
406.44,-167.76,3.5,0,0,0,0
406.46,-168.18,3.5,0,0,0,0
406.48,-168.6,3.5,0,0,0,0
406.5,-169.02,3.5,0,0,0,0
406.52,-169.45,3.5,0,0,0,0
406.54,-169.88,3.5,0,0,0,0
406.56,-170.31,3.49,0,0,0,0
406.58,-170.74,3.49,0,0,0,0
406.6,-171.17,3.49,0,0,0,0
406.62,-171.6,3.49,0,0,0,0
406.64,-172.04,3.49,0,0,0,0
406.66,-172.48,3.48,0,0,0,0
406.68,-172.92,3.48,0,0,0,0
406.7,-173.36,3.48,0,0,0,0
406.72,-173.8,3.48,0,0,0,0
406.74,-174.25,3.48,0,0,0,0
406.76,-174.7,3.48,0,0,0,0
406.78,-175.15,3.47,0,0,0,0
406.8,-175.6,3.47,0,0,0,0
406.82,-176.06,3.47,0,0,0,0
406.84,-176.51,3.47,0,0,0,0
406.86,-176.97,3.47,0,0,0,0
406.88,-177.43,3.47,0,0,0,0
406.9,-177.9,3.46,0,0,0,0
406.92,-178.36,3.46,0,0,0,0
406.94,-178.83,3.46,0,0,0,0
406.96,-179.3,3.46,0,0,0,0
406.98,-179.77,3.46,0,0,0,0
407,-180.25,3.46,0,0,0,0
407.02,-180.72,3.45,0,0,0,0
407.04,-181.2,3.45,0,0,0,0
407.06,-181.68,3.45,0,0,0,0
407.08,-182.17,3.45,0,0,0,0
407.1,-182.66,3.45,0,0,0,0
407.12,-183.14,3.44,0,0,0,0
407.14,-183.64,3.44,0,0,0,0
407.16,-184.13,3.44,0,0,0,0
407.18,-184.63,3.44,0,0,0,0
407.2,-185.12,3.44,0,0,0,0
407.22,-185.63,3.44,0,0,0,0
407.24,-186.13,3.43,0,0,0,0
407.26,-186.64,3.43,0,0,0,0
407.28,-187.15,3.43,0,0,0,0
407.3,-187.66,3.43,0,0,0,0
407.32,-188.17,3.43,0,0,0,0
407.34,-188.69,3.43,0,0,0,0
407.36,-189.21,3.42,0,0,0,0
407.38,-189.74,3.42,0,0,0,0
407.4,-190.26,3.42,0,0,0,0
407.42,-190.79,3.42,0,0,0,0
407.44,-191.32,3.42,0,0,0,0
407.46,-191.86,3.42,0,0,0,0
407.48,-192.4,3.41,0,0,0,0
407.5,-192.94,3.41,0,0,0,0
407.52,-193.48,3.41,0,0,0,0
407.54,-194.03,3.41,0,0,0,0
407.56,-194.58,3.41,0,0,0,0
407.58,-195.13,3.41,0,0,0,0
407.6,-195.69,3.4,0,0,0,0
407.62,-196.25,3.4,0,0,0,0
407.64,-196.81,3.4,0,0,0,0
407.66,-197.37,3.4,0,0,0,0
407.68,-197.94,3.4,0,0,0,0
407.7,-198.52,3.4,0,0,0,0
407.72,-199.09,3.39,0,0,0,0
407.74,-199.67,3.39,0,0,0,0
407.76,-200.25,3.39,0,0,0,0
407.78,-200.84,3.39,0,0,0,0
407.8,-201.43,3.39,0,0,0,0
407.82,-202.02,3.39,0,0,0,0
407.84,-202.62,3.38,0,0,0,0
407.86,-203.22,3.38,0,0,0,0
407.88,-203.83,3.38,0,0,0,0
407.9,-204.43,3.38,0,0,0,0
407.92,-205.04,3.38,0,0,0,0
407.94,-205.66,3.38,0,0,0,0
407.96,-206.28,3.37,0,0,0,0
407.98,-206.9,3.37,0,0,0,0
408,-207.53,3.37,0,0,0,0
408.02,-208.16,3.37,0,0,0,0
408.04,-208.8,3.37,0,0,0,0
408.06,-209.44,3.37,0,0,0,0
408.08,-210.08,3.36,0,0,0,0
408.1,-210.73,3.36,0,0,0,0
408.12,-211.38,3.36,0,0,0,0
408.14,-212.04,3.36,0,0,0,0
408.16,-212.7,3.36,0,0,0,0
408.18,-213.36,3.36,0,0,0,0
408.2,-214.03,3.36,0,0,0,0
408.22,-214.71,3.35,0,0,0,0
408.24,-215.38,3.35,0,0,0,0
408.26,-216.07,3.35,0,0,0,0
408.28,-216.75,3.35,0,0,0,0
408.3,-217.45,3.35,0,0,0,0
408.32,-218.14,3.35,0,0,0,0
408.34,-218.85,3.34,0,0,0,0
408.36,-219.55,3.34,0,0,0,0
408.38,-220.26,3.34,0,0,0,0
408.4,-220.98,3.34,0,0,0,0
408.42,-221.7,3.34,0,0,0,0
408.44,-222.43,3.34,0,0,0,0
408.46,-223.16,3.33,0,0,0,0
408.48,-223.9,3.33,0,0,0,0
408.5,-224.64,3.33,0,0,0,0
408.52,-225.39,3.33,0,0,0,0
408.54,-226.15,3.33,0,0,0,0
408.56,-226.9,3.33,0,0,0,0
408.58,-227.67,3.33,0,0,0,0
408.6,-228.44,3.32,0,0,0,0
408.62,-229.22,3.32,0,0,0,0
408.64,-230,3.32,0,0,0,0
408.66,-230.79,3.32,0,0,0,0
408.68,-231.58,3.32,0,0,0,0
408.7,-232.38,3.32,0,0,0,0
408.72,-233.19,3.31,0,0,0,0
408.74,-234,3.31,0,0,0,0
408.76,-234.82,3.31,0,0,0,0
408.78,-235.64,3.31,0,0,0,0
408.8,-236.47,3.31,0,0,0,0
408.82,-237.31,3.31,0,0,0,0
408.84,-238.16,3.31,0,0,0,0
408.86,-239.01,3.3,0,0,0,0
408.88,-239.87,3.3,0,0,0,0
408.9,-240.73,3.3,0,0,0,0
408.92,-241.6,3.3,0,0,0,0
408.94,-242.48,3.3,0,0,0,0
408.96,-243.37,3.3,0,0,0,0
408.98,-244.26,3.29,0,0,0,0
409,-245.16,3.29,0,0,0,0
409.02,-246.07,3.29,0,0,0,0
409.04,-246.99,3.29,0,0,0,0
409.06,-247.91,3.29,0,0,0,0
409.08,-248.84,3.29,0,0,0,0
409.1,-249.78,3.29,0,0,0,0
409.12,-250.73,3.28,0,0,0,0
409.14,-251.69,3.28,0,0,0,0
409.16,-252.65,3.28,0,0,0,0
409.18,-253.62,3.28,0,0,0,0
409.2,-254.6,3.28,0,0,0,0
409.22,-255.59,3.28,0,0,0,0
409.24,-256.59,3.27,0,0,0,0
409.26,-257.6,3.27,0,0,0,0
409.28,-258.62,3.27,0,0,0,0
409.3,-259.64,3.27,0,0,0,0
409.32,-260.68,3.27,0,0,0,0
409.34,-261.72,3.27,0,0,0,0
409.36,-262.77,3.27,0,0,0,0
409.38,-263.84,3.26,0,0,0,0
409.4,-264.91,3.26,0,0,0,0
409.42,-265.99,3.26,0,0,0,0
409.44,-267.09,3.26,0,0,0,0
409.46,-268.19,3.26,0,0,0,0
409.48,-269.31,3.26,0,0,0,0
409.5,-270.43,3.26,0,0,0,0
409.52,-271.57,3.25,0,0,0,0
409.54,-272.72,3.25,0,0,0,0
409.56,-273.87,3.25,0,0,0,0
409.58,-275.04,3.25,0,0,0,0
409.6,-276.22,3.25,0,0,0,0
409.62,-277.42,3.25,0,0,0,0
409.64,-278.62,3.25,0,0,0,0
409.66,-279.84,3.24,0,0,0,0
409.68,-281.07,3.24,0,0,0,0
409.7,-282.31,3.24,0,0,0,0
409.72,-283.56,3.24,0,0,0,0
409.74,-284.83,3.24,0,0,0,0
409.76,-286.11,3.24,0,0,0,0
409.78,-287.41,3.24,0,0,0,0
409.8,-288.71,3.23,0,0,0,0
409.82,-290.04,3.23,0,0,0,0
409.84,-291.37,3.23,0,0,0,0
409.86,-292.72,3.23,0,0,0,0
409.88,-294.08,3.23,0,0,0,0
409.9,-295.46,3.23,0,0,0,0
409.92,-296.86,3.23,0,0,0,0
409.94,-298.27,3.22,0,0,0,0
409.96,-299.69,3.22,0,0,0,0
409.98,-301.13,3.22,0,0,0,0
410,-302.59,3.22,0,0,0,0
410.02,-304.06,3.22,0,0,0,0
410.04,-305.55,3.22,0,0,0,0
410.06,-307.06,3.22,0,0,0,0
410.08,-308.59,3.21,0,0,0,0
410.1,-310.13,3.21,0,0,0,0
410.12,-311.69,3.21,0,0,0,0
410.14,-313.27,3.21,0,0,0,0
410.16,-314.87,3.21,0,0,0,0
410.18,-316.48,3.21,0,0,0,0
410.2,-318.12,3.21,0,0,0,0
410.22,-319.77,3.21,0,0,0,0
410.24,-321.45,3.2,0,0,0,0
410.26,-323.15,3.2,0,0,0,0
410.28,-324.86,3.2,0,0,0,0
410.3,-326.6,3.2,0,0,0,0
410.32,-328.36,3.2,0,0,0,0
410.34,-330.14,3.2,0,0,0,0
410.36,-331.95,3.2,0,0,0,0
410.38,-333.78,3.19,0,0,0,0
410.4,-335.63,3.19,0,0,0,0
410.42,-337.51,3.19,0,0,0,0
410.44,-339.41,3.19,0,0,0,0
410.46,-341.33,3.19,0,0,0,0
410.48,-343.28,3.19,0,0,0,0
410.5,-345.26,3.19,0,0,0,0
410.52,-347.27,3.19,0,0,0,0
410.54,-349.3,3.18,0,0,0,0
410.56,-351.36,3.18,0,0,0,0
410.58,-353.44,3.18,0,0,0,0
410.6,-355.56,3.18,0,0,0,0
410.62,-357.71,3.18,0,0,0,0
410.64,-359.88,3.18,0,0,0,0
410.66,-362.09,3.18,0,0,0,0
410.68,-364.33,3.18,0,0,0,0
410.7,-366.6,3.17,0,0,0,0
410.72,-368.91,3.17,0,0,0,0
410.74,-371.25,3.17,0,0,0,0
410.76,-373.62,3.17,0,0,0,0
410.78,-376.03,3.17,0,0,0,0
410.8,-378.47,3.17,0,0,0,0
410.82,-380.96,3.17,0,0,0,0
410.84,-383.48,3.17,0,0,0,0
410.86,-386.04,3.16,0,0,0,0
410.88,-388.64,3.16,0,0,0,0
410.9,-391.28,3.16,0,0,0,0
410.92,-393.96,3.16,0,0,0,0
410.94,-396.69,3.16,0,0,0,0
410.96,-399.46,3.16,0,0,0,0
410.98,-402.27,3.16,0,0,0,0
411,-405.13,3.16,0,0,0,0
411.02,-408.04,3.16,0,0,0,0
411.04,-411,3.15,0,0,0,0
411.06,-414,3.15,0,0,0,0
411.08,-417.06,3.15,0,0,0,0
411.1,-420.17,3.15,0,0,0,0
411.12,-423.34,3.15,0,0,0,0
411.14,-426.56,3.15,0,0,0,0
411.16,-429.83,3.15,0,0,0,0
411.18,-433.17,3.15,0,0,0,0
411.2,-436.56,3.15,0,0,0,0
411.22,-440.02,3.14,0,0,0,0
411.24,-443.54,3.14,0,0,0,0
411.26,-447.13,3.14,0,0,0,0
411.28,-450.78,3.14,0,0,0,0
411.3,-454.51,3.14,0,0,0,0
411.32,-458.3,3.14,0,0,0,0
411.34,-462.17,3.14,0,0,0,0
411.36,-466.11,3.14,0,0,0,0
411.38,-470.14,3.14,0,0,0,0
411.4,-474.24,3.14,0,0,0,0
411.42,-478.42,3.14,0,0,0,0
411.44,-482.69,3.13,0,0,0,0
411.46,-487.05,3.13,0,0,0,0
411.48,-491.5,3.13,0,0,0,0
411.5,-496.04,3.13,0,0,0,0
411.52,-500.68,3.13,0,0,0,0
411.54,-505.42,3.13,0,0,0,0
411.56,-510.26,3.13,0,0,0,0
411.58,-515.21,3.13,0,0,0,0
411.6,-520.27,3.13,0,0,0,0
411.62,-525.44,3.13,0,0,0,0
411.64,-530.73,3.13,0,0,0,0
411.66,-536.15,3.13,0,0,0,0
411.68,-541.69,3.13,0,0,0,0
411.7,-547.36,3.13,0,0,0,0
411.72,-553.17,3.13,0,0,0,0
411.74,-559.12,3.13,0,0,0,0
411.76,-565.21,3.12,0,0,0,0
411.78,-571.46,3.12,0,0,0,0
411.8,-577.86,3.12,0,0,0,0
411.82,-584.43,3.12,0,0,0,0
411.84,-591.17,3.12,0,0,0,0
411.86,-598.08,3.12,0,0,0,0
411.88,-605.18,3.12,0,0,0,0
411.9,-612.47,3.12,0,0,0,0
411.92,-619.96,3.12,0,0,0,0
411.94,-627.66,3.12,0,0,0,0
411.96,-635.58,3.12,0,0,0,0
411.98,-643.72,3.12,0,0,0,0
412,-652.1,3.12,0,0,0,0
412.02,-660.72,3.12,0,0,0,0
412.04,-669.6,3.12,0,0,0,0
412.06,-678.75,3.12,0,0,0,0
412.08,-688.19,3.12,0,0,0,0
412.1,-697.92,3.13,0,0,0,0
412.12,-707.96,3.13,0,0,0,0
412.14,-718.32,3.13,0,0,0,0
412.16,-729.03,3.13,0,0,0,0
412.18,-740.09,3.13,0,0,0,0
412.2,-751.54,3.13,0,0,0,0
412.22,-763.37,3.13,0,0,0,0
412.24,-775.63,3.13,0,0,0,0
412.26,-788.33,3.13,0,0,0,0
412.28,-801.49,3.14,0,0,0,0
412.3,-815.14,3.14,0,0,0,0
412.32,-829.31,3.14,0,0,0,0
412.34,-844.03,3.14,0,0,0,0
412.36,-859.34,3.14,0,0,0,0
412.38,-875.26,3.15,0,0,0,0
412.4,-891.83,3.15,0,0,0,0
412.42,-909.11,3.15,0,0,0,0
412.44,-927.13,3.16,0,0,0,0
412.46,-945.94,3.16,0,0,0,0
412.48,-965.59,3.16,0,0,0,0
412.5,-986.15,3.17,0,0,0,0
412.52,-1007.68,3.17,0,0,0,0
412.54,-1030.25,3.18,0,0,0,0
412.56,-1053.93,3.19,0,0,0,0
412.58,-1078.82,3.19,0,0,0,0
412.6,-1105,3.2,0,0,0,0
412.62,-1132.58,3.21,0,0,0,0
412.64,-1161.67,3.21,0,0,0,0
412.66,-1192.41,3.22,0,0,0,0
412.68,-1224.94,3.23,0,0,0,0
412.7,-1259.41,3.24,0,0,0,0
412.72,-1296.02,3.26,0,0,0,0
412.74,-1334.96,3.27,0,0,0,0
412.76,-1376.46,3.29,0,0,0,0
412.78,-1420.8,3.3,0,0,0,0
412.8,-1468.26,3.32,0,0,0,0
412.82,-1519.19,3.34,0,0,0,0
412.84,-1573.98,3.36,0,0,0,0
412.86,-1633.11,3.39,0,0,0,0
412.88,-1697.09,3.42,0,0,0,0
412.882,-1703.78,3.42,0,0,0,0
412.884,-1710.52,3.42,0,0,0,0
412.886,-1717.32,3.43,0,0,0,0
412.888,-1724.18,3.43,0,0,0,0
412.89,-1731.09,3.43,0,0,0,0
412.892,-1738.07,3.44,0,0,0,0
412.894,-1745.1,3.44,0,0,0,0
412.896,-1752.19,3.44,0,0,0,0
412.898,-1759.34,3.45,0,0,0,0
412.9,-1766.56,3.45,0,0,0,0
412.902,-1773.83,3.45,0,0,0,0
412.904,-1781.17,3.46,0,0,0,0
412.906,-1788.57,3.46,0,0,0,0
412.908,-1796.04,3.46,0,0,0,0
412.91,-1803.57,3.47,0,0,0,0
412.912,-1811.17,3.47,0,0,0,0
412.914,-1818.84,3.47,0,0,0,0
412.916,-1826.57,3.48,0,0,0,0
412.918,-1834.37,3.48,0,0,0,0
412.92,-1842.25,3.49,0,0,0,0
412.922,-1850.19,3.49,0,0,0,0
412.924,-1858.21,3.49,0,0,0,0
412.926,-1866.29,3.5,0,0,0,0
412.928,-1874.46,3.5,0,0,0,0
412.93,-1882.69,3.51,0,0,0,0
412.932,-1891.01,3.51,0,0,0,0
412.934,-1899.4,3.51,0,0,0,0
412.936,-1907.86,3.52,0,0,0,0
412.938,-1916.41,3.52,0,0,0,0
412.94,-1925.04,3.53,0,0,0,0
412.942,-1933.74,3.53,0,0,0,0
412.944,-1942.54,3.54,0,0,0,0
412.946,-1951.41,3.54,0,0,0,0
412.948,-1960.37,3.55,0,0,0,0
412.95,-1969.41,3.55,0,0,0,0
412.952,-1978.55,3.56,0,0,0,0
412.954,-1987.77,3.56,0,0,0,0
412.956,-1997.08,3.56,0,0,0,0
412.958,-2006.48,3.57,0,0,0,0
412.96,-2015.97,3.57,0,0,0,0
412.962,-2025.56,3.58,0,0,0,0
412.964,-2035.25,3.58,0,0,0,0
412.966,-2045.03,3.59,0,0,0,0
412.968,-2054.91,3.6,0,0,0,0
412.97,-2064.88,3.6,0,0,0,0
412.972,-2074.96,3.61,0,0,0,0
412.974,-2085.15,3.61,0,0,0,0
412.976,-2095.43,3.62,0,0,0,0
412.978,-2105.83,3.62,0,0,0,0
412.98,-2116.33,3.63,0,0,0,0
412.982,-2126.94,3.63,0,0,0,0
412.984,-2137.66,3.64,0,0,0,0
412.986,-2148.49,3.65,0,0,0,0
412.988,-2159.44,3.65,0,0,0,0
412.99,-2170.5,3.66,0,0,0,0
412.992,-2181.68,3.67,0,0,0,0
412.994,-2192.99,3.67,0,0,0,0
412.996,-2204.41,3.68,0,0,0,0
412.998,-2215.96,3.68,0,0,0,0
413,-2227.64,3.69,0,0,0,0
413.002,-2239.44,3.7,0,0,0,0
413.004,-2251.37,3.7,0,0,0,0
413.006,-2263.44,3.71,0,0,0,0
413.008,-2275.64,3.72,0,0,0,0
413.01,-2287.98,3.73,0,0,0,0
413.012,-2300.45,3.73,0,0,0,0
413.014,-2313.07,3.74,0,0,0,0
413.016,-2325.83,3.75,0,0,0,0
413.018,-2338.74,3.76,0,0,0,0
413.02,-2351.8,3.76,0,0,0,0
413.022,-2365.01,3.77,0,0,0,0
413.024,-2378.38,3.78,0,0,0,0
413.026,-2391.9,3.79,0,0,0,0
413.028,-2405.58,3.8,0,0,0,0
413.03,-2419.42,3.8,0,0,0,0
